wavelength;reflectance;direct_transmittance;diffuse_transmittance
0.4;4.84955496190476;0.0;2.78081925263158
0.401;4.88021825238095;0.0;2.79743282631579
0.402;4.88950188571429;0.0;2.79944066315789
0.403;4.92254955714286;0.0;2.81711477894737
0.404;4.95944448571429;0.0;2.83379180526316
0.405;4.9712569047619;0.0;2.82814713157895
0.406;4.98990687142857;0.0;2.83567938421053
0.407;5.01796799047619;0.0;2.85349355789474
0.408;5.05189596666667;0.0;2.87272072105263
0.409;5.07991269047619;0.0;2.8766755
0.41;5.12046152380952;0.0;2.89469090526316
0.411;5.16845301904762;0.0;2.92392976315789
0.412;5.19519203333333;0.0;2.93061413157895
0.413;5.24228488571429;0.0;2.95227005789474
0.414;5.29279736190476;0.0;2.97578898421053
0.415;5.31722445238095;0.0;2.97694427368421
0.416;5.3625597047619;0.0;2.98990314210526
0.417;5.40651637142857;0.0;3.01069502105263
0.418;5.43281985238095;0.0;3.03082124736842
0.419;5.46987768571429;0.0;3.0430217
0.42;5.51013127142857;0.0;3.06088227368421
0.421;5.54750182380952;0.0;3.08625617894737
0.422;5.5771693;0.0;3.10754471052632
0.423;5.6116900952381;0.0;3.12311367368421
0.424;5.64428156666667;0.0;3.13432193157895
0.425;5.66163245238095;0.0;3.14434162105263
0.426;5.68887702380952;0.0;3.14919259473684
0.427;5.71725294761905;0.0;3.16080065263158
0.428;5.73566627142857;0.0;3.18560956315789
0.429;5.74747189047619;0.0;3.19835758947368
0.43;5.76320578571429;0.0;3.20499657368421
0.431;5.78346699047619;0.0;3.21037725789474
0.432;5.78989137142857;0.0;3.21430146315789
0.433;5.80528001428571;0.0;3.22623511052632
0.434;5.82684146666667;0.0;3.24040372631579
0.435;5.83605022857143;0.0;3.24097055789474
0.436;5.84021659047619;0.0;3.24510051578947
0.437;5.84333203333333;0.0;3.25260096842105
0.438;5.84843117619048;0.0;3.25860670526316
0.439;5.85491453333333;0.0;3.25693087368421
0.44;5.86266108095238;0.0;3.26020122631579
0.441;5.87130792857143;0.0;3.27312881052632
0.442;5.8797773047619;0.0;3.27696224210526
0.443;5.88981463809524;0.0;3.28232576842105
0.444;5.90263198571429;0.0;3.29225736315789
0.445;5.91995945238095;0.0;3.30332021052632
0.446;5.9237702952381;0.0;3.30515070526316
0.447;5.92376919047619;0.0;3.30271451578947
0.448;5.93912318571429;0.0;3.30697219473684
0.449;5.95429375714286;0.0;3.31514714736842
0.45;5.96502229047619;0.0;3.32229702105263
0.451;5.97197136666667;0.0;3.32544985789474
0.452;5.98778388571429;0.0;3.33069289473684
0.453;6.00162316190476;0.0;3.33681031578947
0.454;6.00979786666667;0.0;3.34272413157895
0.455;6.02144065238095;0.0;3.34762681578947
0.456;6.03210755714286;0.0;3.3539271
0.457;6.03858272857143;0.0;3.36047788947368
0.458;6.03793820952381;0.0;3.36393485789474
0.459;6.04078364761905;0.0;3.36668437368421
0.46;6.04449108095238;0.0;3.36977115789474
0.461;6.04400006190476;0.0;3.37344722105263
0.462;6.04273034285714;0.0;3.37519041578947
0.463;6.04134627619048;0.0;3.37568143157895
0.464;6.03939829047619;0.0;3.3752748
0.465;6.03387083809524;0.0;3.37198606315789
0.466;6.02799139523809;0.0;3.37124443684211
0.467;6.02514181904762;0.0;3.37423356315789
0.468;6.0298514;0.0;3.37807944210526
0.469;6.03078792380952;0.0;3.3801606
0.47;6.02828285238095;0.0;3.38077097894737
0.471;6.02698003809524;0.0;3.38139166315789
0.472;6.02282591904762;0.0;3.37946042631579
0.473;6.02038123809524;0.0;3.37939368947368
0.474;6.02246614761905;0.0;3.38362124210526
0.475;6.0195707952381;0.0;3.38194711578947
0.476;6.01877914285714;0.0;3.38382378421053
0.477;6.0224902047619;0.0;3.39134014736842
0.478;6.02438940476191;0.0;3.39290242631579
0.479;6.02784124761905;0.0;3.39508752631579
0.48;6.03090133333333;0.0;3.39760819473684
0.481;6.02846280952381;0.0;3.39640867894737
0.482;6.03041754761905;0.0;3.40012961052632
0.483;6.03379056190476;0.0;3.40476807894737
0.484;6.03368528095238;0.0;3.40463034736842
0.485;6.03775219047619;0.0;3.40786566842105
0.486;6.04486712857143;0.0;3.4134108
0.487;6.05298563333333;0.0;3.41928714210526
0.488;6.05955031428571;0.0;3.4234109
0.489;6.06941670476191;0.0;3.42882751052632
0.49;6.08370685714286;0.0;3.43587927894737
0.491;6.09914840952381;0.0;3.44169043157895
0.492;6.11802342380952;0.0;3.44768378421053
0.493;6.14211032857143;0.0;3.45615732105263
0.494;6.17283737619048;0.0;3.46949247368421
0.495;6.20615302857143;0.0;3.47999857894737
0.496;6.24577288095238;0.0;3.49360464210526
0.497;6.29469716666667;0.0;3.51558830526316
0.498;6.34538724285714;0.0;3.53573475789474
0.499;6.40305970952381;0.0;3.55743055263158
0.5;6.47110895238095;0.0;3.58326355789474
0.501;6.5485207047619;0.0;3.61311656842105
0.502;6.63328969047619;0.0;3.64477466842105
0.503;6.72780289047619;0.0;3.67956041052632
0.504;6.83847353809524;0.0;3.72191832631579
0.505;6.95767874285714;0.0;3.76646641052632
0.506;7.08810175238095;0.0;3.81521112105263
0.507;7.23515468571429;0.0;3.87196734210526
0.508;7.3963847952381;0.0;3.93340704210526
0.509;7.57364325714286;0.0;4.00131905789474
0.51;7.76727737619048;0.0;4.07675071578947
0.511;7.97060542857143;0.0;4.1558974
0.512;8.19140717142857;0.0;4.24208257894737
0.513;8.43169898571428;0.0;4.33657654210526
0.514;8.68446890952381;0.0;4.4376388
0.515;8.9526611952381;0.0;4.54476874210526
0.516;9.2361304;0.0;4.65848371578947
0.517;9.53348730952381;0.0;4.78011721052632
0.518;9.84117118095238;0.0;4.90599741052632
0.519;10.156217047619;0.0;5.0357593368421
0.52;10.4758347857143;0.0;5.16974907894737
0.521;10.7977436047619;0.0;5.30751010526316
0.522;11.1174974857143;0.0;5.44479966842105
0.523;11.4311964619048;0.0;5.5790535
0.524;11.7379989142857;0.0;5.71353892631579
0.525;12.0308750571429;0.0;5.84323982105263
0.526;12.3064797380952;0.0;5.96574005263158
0.527;12.5658194952381;0.0;6.08128925789474
0.528;12.8082323238095;0.0;6.19225778421053
0.529;13.0321032238095;0.0;6.29694429473684
0.53;13.235579247619;0.0;6.39187714210526
0.531;13.4204374857143;0.0;6.47899417894737
0.532;13.5859503285714;0.0;6.55860671578947
0.533;13.7319639095238;0.0;6.63079145789474
0.534;13.8632137095238;0.0;6.69579410526316
0.535;13.9796496285714;0.0;6.75388528947368
0.536;14.0813044047619;0.0;6.80556915789474
0.537;14.1686637238095;0.0;6.85149516315789
0.538;14.2457798333333;0.0;6.89454695789474
0.539;14.3135638761905;0.0;6.93399388947368
0.54;14.3697112142857;0.0;6.96531765789474
0.541;14.4214022380952;0.0;6.99524052631579
0.542;14.4709009428571;0.0;7.02479183684211
0.543;14.5186740285714;0.0;7.05315859473684
0.544;14.5656658761905;0.0;7.08286537894737
0.545;14.6131077428571;0.0;7.11195548421053
0.546;14.6618786571429;0.0;7.13923224210526
0.547;14.7119493238095;0.0;7.16980574210526
0.548;14.7611968380952;0.0;7.1997920368421
0.549;14.8078975428571;0.0;7.22732312631579
0.55;14.8516049238095;0.0;7.25508594210526
0.551;14.8875659904762;0.0;7.27871976842105
0.552;14.9138335619048;0.0;7.29712667368421
0.553;14.9304907666667;0.0;7.3114514631579
0.554;14.931493352381;0.0;7.31962082631579
0.555;14.9146398333333;0.0;7.31915790526316
0.556;14.8794165190476;0.0;7.30810161578947
0.557;14.827220447619;0.0;7.29037821578947
0.558;14.7578406190476;0.0;7.26515011578947
0.559;14.6715114714286;0.0;7.23142663157895
0.56;14.5697792952381;0.0;7.18935841578947
0.561;14.456370847619;0.0;7.14240568421053
0.562;14.3330145047619;0.0;7.09156868947368
0.563;14.1987348904762;0.0;7.03397201578947
0.564;14.053233552381;0.0;6.97174685263158
0.565;13.896769452381;0.0;6.90464817894737
0.566;13.7299539333333;0.0;6.83113444210526
0.567;13.5507900809524;0.0;6.75279874736842
0.568;13.3605827142857;0.0;6.66975251052632
0.569;13.1619512047619;0.0;6.58231926315789
0.57;12.9574008809524;0.0;6.49418762105263
0.571;12.7502353428571;0.0;6.40412402631579
0.572;12.5444921428571;0.0;6.31274248421053
0.573;12.3458503142857;0.0;6.2272502368421
0.574;12.1538610761905;0.0;6.14504915789474
0.575;11.9691781904762;0.0;6.06544058947368
0.576;11.7929788809524;0.0;5.98949993684211
0.577;11.6281466809524;0.0;5.91967918947368
0.578;11.4747151380952;0.0;5.85555776842105
0.579;11.3308891809524;0.0;5.79506075263158
0.58;11.1957300857143;0.0;5.7389786368421
0.581;11.0683690095238;0.0;5.68630917368421
0.582;10.9477891952381;0.0;5.63592791578947
0.583;10.8325955380952;0.0;5.58845366842105
0.584;10.7244404;0.0;5.54431725263158
0.585;10.6238707952381;0.0;5.50349627894737
0.586;10.528772752381;0.0;5.46513782105263
0.587;10.4394378190476;0.0;5.42943194210526
0.588;10.3556573666667;0.0;5.39622198947368
0.589;10.2770211809524;0.0;5.36510751052632
0.59;10.2048236142857;0.0;5.33675344736842
0.591;10.1386989714286;0.0;5.3108632
0.592;10.0775411047619;0.0;5.28682589473684
0.593;10.0230184714286;0.0;5.26665402105263
0.594;9.97430844285714;0.0;5.24891370526316
0.595;9.93011151428571;0.0;5.23202369473684
0.596;9.88932367142857;0.0;5.21684252105263
0.597;9.85162477619048;0.0;5.20300291052632
0.598;9.81584544761905;0.0;5.18982082105263
0.599;9.77908046666667;0.0;5.17599029473684
0.6;9.74086648571429;0.0;5.16225676842105
0.601;9.70029211904762;0.0;5.14802481052632
0.602;9.65628036190476;0.0;5.13156705263158
0.603;9.60819391428572;0.0;5.11383941052632
0.604;9.55422537619048;0.0;5.09357865263158
0.605;9.49263572380952;0.0;5.06912193684211
0.606;9.42700381904762;0.0;5.04339871578947
0.607;9.35725275238095;0.0;5.01618034736842
0.608;9.28282414285714;0.0;4.98686028421053
0.609;9.20347465238095;0.0;4.95535714210526
0.61;9.12010630952381;0.0;4.92198254210526
0.611;9.03469834285714;0.0;4.88763727894737
0.612;8.95100786666667;0.0;4.85427298421053
0.613;8.86896012857143;0.0;4.82123077368421
0.614;8.78872073809524;0.0;4.78873647368421
0.615;8.71059418571429;0.0;4.75758485789474
0.616;8.63461577142857;0.0;4.72756508421053
0.617;8.56264086666667;0.0;4.69954769473684
0.618;8.49644985238095;0.0;4.6742287368421
0.619;8.43278659047619;0.0;4.6487443
0.62;8.37450410952381;0.0;4.62501415789474
0.621;8.32339916666667;0.0;4.60474422105263
0.622;8.27602730952381;0.0;4.58748680526316
0.623;8.23442317142857;0.0;4.57241654736842
0.624;8.19913553333333;0.0;4.55923137368421
0.625;8.16859007142857;0.0;4.54812755789474
0.626;8.1446127;0.0;4.54055596842105
0.627;8.12648927619048;0.0;4.53549878421053
0.628;8.11216050952381;0.0;4.53076553157895
0.629;8.1015179;0.0;4.52924015263158
0.63;8.09269321904762;0.0;4.52857812631579
0.631;8.08311862380952;0.0;4.52600822631579
0.632;8.068837;0.0;4.52259315789474
0.633;8.0503903047619;0.0;4.51708171052632
0.634;8.02597543333333;0.0;4.50812862631579
0.635;7.98787871904762;0.0;4.49444186315789
0.636;7.93701345714286;0.0;4.47514806315789
0.637;7.87354800952381;0.0;4.44994843157895
0.638;7.79703225238095;0.0;4.41899346842105
0.639;7.71029203809524;0.0;4.38336666842105
0.64;7.61512119047619;0.0;4.34351232631579
0.641;7.51315277142857;0.0;4.29992847368421
0.642;7.40840267142857;0.0;4.25666531578947
0.643;7.30201786190476;0.0;4.21258952631579
0.644;7.19459967142857;0.0;4.16659264210526
0.645;7.08727484761905;0.0;4.12130106315789
0.646;6.9829831;0.0;4.07825993157895
0.647;6.88431257619048;0.0;4.03801447894737
0.648;6.79319051428571;0.0;3.99923428947368
0.649;6.71296695714286;0.0;3.96502596842105
0.65;6.64487626666667;0.0;3.9366238
0.651;6.58863952857143;0.0;3.91412314210526
0.652;6.54205264285714;0.0;3.89476521578947
0.653;6.50188795714286;0.0;3.87768758947368
0.654;6.46449798571429;0.0;3.86241074210526
0.655;6.42670313333333;0.0;3.84711308947368
0.656;6.38648574761905;0.0;3.83081573684211
0.657;6.34192847142857;0.0;3.8125083
0.658;6.29027713809524;0.0;3.79045162105263
0.659;6.23202552380952;0.0;3.76555814210526
0.66;6.16870937619048;0.0;3.73854476315789
0.661;6.10322613809524;0.0;3.70991817368421
0.662;6.03726852857143;0.0;3.68054114210526
0.663;5.97256452857143;0.0;3.6507131
0.664;5.91097117619048;0.0;3.62065715263158
0.665;5.85603159047619;0.0;3.59383271578947
0.666;5.80853663809524;0.0;3.56990573157895
0.667;5.76842703333333;0.0;3.54792149473684
0.668;5.73540805714286;0.0;3.52857272631579
0.669;5.7082230952381;0.0;3.51036335263158
0.67;5.68804791904762;0.0;3.49379257894737
0.671;5.68276946190476;0.0;3.48470468421053
0.672;5.68333130952381;0.0;3.47770278947368
0.673;5.68770456666667;0.0;3.4711789
0.674;5.69922696666667;0.0;3.46637173684211
0.675;5.71665624761905;0.0;3.46350012105263
0.676;5.73966414761905;0.0;3.46222516315789
0.677;5.76823371428571;0.0;3.46203353684211
0.678;5.80284282380952;0.0;3.46296495263158
0.679;5.84393335714286;0.0;3.46616645789474
0.68;5.89221981904762;0.0;3.47253157368421
0.681;5.94876215714286;0.0;3.48136973157895
0.682;6.01546365714286;0.0;3.49466794210526
0.683;6.09451653809524;0.0;3.51444877894737
0.684;6.18801474761905;0.0;3.54273387368421
0.685;6.29989926666667;0.0;3.58086551578947
0.686;6.43742731428571;0.0;3.63183406842105
0.687;6.61021762857143;0.0;3.69973668947368
0.688;6.8276692047619;0.0;3.78990374210526
0.689;7.10048086666667;0.0;3.90670053684211
0.69;7.4394761;0.0;4.05428177894737
0.691;7.85525663333333;0.0;4.23723791578947
0.692;8.35123033809524;0.0;4.45750783684211
0.693;8.92876288095238;0.0;4.71637288421053
0.694;9.58841850952381;0.0;5.01489960526316
0.695;10.3239242809524;0.0;5.35217185263158
0.696;11.1278455857143;0.0;5.72591875263158
0.697;11.9904329809524;0.0;6.13209280526316
0.698;12.9034299095238;0.0;6.57027391052632
0.699;13.8593524761905;0.0;7.0382179
0.7;14.8499950809524;0.0;7.53249348947368
0.701;15.8658792142857;0.0;8.04937022631579
0.702;16.8991307428571;0.0;8.58533496315789
0.703;17.941964;0.0;9.13676063157895
0.704;18.9864708714286;0.0;9.70025198421053
0.705;20.0270619952381;0.0;10.2710202736842
0.706;21.0614202285714;0.0;10.8476331421053
0.707;22.0911908142857;0.0;11.4330029052632
0.708;23.1148473333333;0.0;12.0235077315789
0.709;24.1330039190476;0.0;12.6190173947368
0.71;25.1474254761905;0.0;13.2209940842105
0.711;26.1578525;0.0;13.8286149473684
0.712;27.1652636619048;0.0;14.4419071
0.713;28.169999;0.0;15.0606119736842
0.714;29.1693232714286;0.0;15.6826117105263
0.715;30.1633240047619;0.0;16.3082913263158
0.716;31.1507642142857;0.0;16.9366705736842
0.717;32.1297206;0.0;17.5651773315789
0.718;33.1007981571429;0.0;18.1948413789474
0.719;34.0608972857143;0.0;18.8235131105263
0.72;35.0058317857143;0.0;19.4479166894737
0.721;35.9359070809524;0.0;20.0679445105263
0.722;36.8476468285714;0.0;20.6812537631579
0.723;37.7382830190476;0.0;21.2858397789474
0.724;38.6050626476191;0.0;21.8783167421053
0.725;39.4445617142857;0.0;22.4560645947368
0.726;40.2552593142857;0.0;23.0177821578947
0.727;41.0377315380952;0.0;23.5632942736842
0.728;41.7876846952381;0.0;24.0890803368421
0.729;42.5040348190476;0.0;24.5940863631579
0.73;43.1876783809524;0.0;25.0788806789474
0.731;43.8379452571429;0.0;25.5419235947368
0.732;44.4547914904762;0.0;25.9832718
0.733;45.0381359380952;0.0;26.4032004894737
0.734;45.5880434571429;0.0;26.8000397315789
0.735;46.1062183047619;0.0;27.1766985894737
0.736;46.593400547619;0.0;27.5344530894737
0.737;47.0476570857143;0.0;27.8684152947368
0.738;47.471528452381;0.0;28.1822634368421
0.739;47.8666080428571;0.0;28.4773117578947
0.74;48.2329483476191;0.0;28.7515317684211
0.741;48.5712082142857;0.0;29.0079976473684
0.742;48.8826446;0.0;29.2472774894737
0.743;49.1686713714286;0.0;29.4689221684211
0.744;49.4293682190476;0.0;29.6743430894737
0.745;49.6663043047619;0.0;29.8641439368421
0.746;49.8807529666667;0.0;30.0386644421053
0.747;50.072376752381;0.0;30.1982851368421
0.748;50.2449234380952;0.0;30.3443123684211
0.749;50.3999879809524;0.0;30.4776360210526
0.75;50.5361823285714;0.0;30.5988095157895
0.751;50.6570036666667;0.0;30.7099144
0.752;50.7639714285714;0.0;30.8108699263158
0.753;50.8578649142857;0.0;30.9007646473684
0.754;50.9409239428571;0.0;30.9843007
0.755;51.0141833142857;0.0;31.0606213473684
0.756;51.078530052381;0.0;31.1286206789474
0.757;51.1356255190476;0.0;31.1914491842105
0.758;51.185229347619;0.0;31.2482709052632
0.759;51.2281541428571;0.0;31.2995601842105
0.76;51.2677079285714;0.0;31.3489275105263
0.761;51.3010955523809;0.0;31.3926826842105
0.762;51.3277165190476;0.0;31.4308171736842
0.763;51.3482995047619;0.0;31.4654977
0.764;51.3656749190476;0.0;31.4978047947368
0.765;51.3790925047619;0.0;31.5269052157895
0.766;51.3875793857143;0.0;31.5519769263158
0.767;51.393331052381;0.0;31.5746279578947
0.768;51.3971076;0.0;31.5962565578947
0.769;51.3993773809524;0.0;31.6173412578947
0.77;51.4001471190476;0.0;31.6368075368421
0.771;51.4008756190476;0.0;31.6545323052632
0.772;51.4013089285714;0.0;31.6708608473684
0.773;51.4001885142857;0.0;31.6865134157895
0.774;51.4004098238095;0.0;31.7021985157895
0.775;51.4014458857143;0.0;31.7177904210526
0.776;51.4021090238095;0.0;31.7329833105263
0.777;51.4022162761905;0.0;31.7479487789474
0.778;51.4031074142857;0.0;31.7623794578947
0.779;51.4053378809524;0.0;31.7763561631579
0.78;51.407910347619;0.0;31.7908165052632
0.781;51.4109489333333;0.0;31.8047995315789
0.782;51.4146272190476;0.0;31.8188160736842
0.783;51.4191783190476;0.0;31.8341840789474
0.784;51.4237451428571;0.0;31.8488779263158
0.785;51.4289935904762;0.0;31.8632033842105
0.786;51.4354179380952;0.0;31.8778039684211
0.787;51.4408341238095;0.0;31.8922145
0.788;51.4472476285714;0.0;31.9065429263158
0.789;51.4548746571429;0.0;31.9207249684211
0.79;51.4600009904762;0.0;31.9341482736842
0.791;51.4666274190476;0.0;31.9487495421053
0.792;51.4746690904762;0.0;31.9640409631579
0.793;51.4818948142857;0.0;31.9782006947368
0.794;51.4889169571429;0.0;31.9924040052632
0.795;51.4960471476191;0.0;32.0065634526316
0.796;51.5036579142857;0.0;32.0206517052632
0.797;51.5125397380952;0.0;32.0359363368421
0.798;51.5208274142857;0.0;32.0510010473684
0.799;51.5282269142857;0.0;32.0651626105263
0.8;51.5371202142857;0.0;32.0788078473684
0.801;51.5462571761905;0.0;32.0938349684211
0.802;51.5549794904762;0.0;32.1094448368421
0.803;51.5628959666667;0.0;32.1235322157895
0.804;51.571045447619;0.0;32.1374202105263
0.805;51.5796831571429;0.0;32.1515837105263
0.806;51.5885738666667;0.0;32.1661722368421
0.807;51.5962784142857;0.0;32.1807804368421
0.808;51.6038360238095;0.0;32.1945828736842
0.809;51.611974647619;0.0;32.2077489263158
0.81;51.6210525;0.0;32.2217137631579
0.811;51.630203452381;0.0;32.2367497210526
0.812;51.6391373238095;0.0;32.2517823473684
0.813;51.6478063095238;0.0;32.2653708631579
0.814;51.656136947619;0.0;32.2795348263158
0.815;51.6652310380952;0.0;32.2943878263158
0.816;51.6753923809524;0.0;32.3094505736842
0.817;51.6840953047619;0.0;32.3231597
0.818;51.6937836952381;0.0;32.3380588842105
0.819;51.7043176142857;0.0;32.3538018157895
0.82;51.7130502571429;0.0;32.3671967
0.821;51.7226572095238;0.0;32.3824290842105
0.822;51.7330155761905;0.0;32.3983058105263
0.823;51.7430119904762;0.0;32.4123255052632
0.824;51.7510658190476;0.0;32.4251230631579
0.825;51.7591009285714;0.0;32.4383887842105
0.826;51.7680568380952;0.0;32.4527858894737
0.827;51.7762605428571;0.0;32.4668182368421
0.828;51.7829929428571;0.0;32.4793732263158
0.829;51.7894327190476;0.0;32.4909465473684
0.83;51.7979793190476;0.0;32.5032098210526
0.831;51.8042755238095;0.0;32.5153949105263
0.832;51.8101835571428;0.0;32.5274810736842
0.833;51.8180514095238;0.0;32.5397469
0.834;51.8259144666667;0.0;32.5530247578947
0.835;51.8343606761905;0.0;32.5668675473684
0.836;51.8432954285714;0.0;32.5809189315789
0.837;51.8513556238095;0.0;32.5949887
0.838;51.8608065238095;0.0;32.6084456947368
0.839;51.8713816666667;0.0;32.6225511578947
0.84;51.8816469904762;0.0;32.6388530631579
0.841;51.8904899285714;0.0;32.6528254210526
0.842;51.8992558380952;0.0;32.6661309894737
0.843;51.9090449142857;0.0;32.6806792631579
0.844;51.9193394714286;0.0;32.6969590263158
0.845;51.9300902238095;0.0;32.7120329421053
0.846;51.939802452381;0.0;32.7253802263158
0.847;51.9457812619048;0.0;32.7386037105263
0.848;51.9537210904762;0.0;32.7522112736842
0.849;51.9624722333333;0.0;32.7664177157895
0.85;51.9698911333333;0.0;32.7809680368421
0.851;51.9793397619048;0.0;32.7942525631579
0.852;51.9877891809524;0.0;32.8070739210526
0.853;51.9941540190476;0.0;32.8199401157895
0.854;52.0011022142857;0.0;32.8326970421053
0.855;52.0077775047619;0.0;32.8450990421053
0.856;52.0137229095238;0.0;32.8572035842105
0.857;52.0187942857143;0.0;32.8692858
0.858;52.0254826761905;0.0;32.8821428789474
0.859;52.0318205857143;0.0;32.8940817736842
0.86;52.0362637571429;0.0;32.9041951210526
